Wavelength [nm],Transmission [dB]
350.000,-65.716
351.400,-210.000
352.800,-210.000
354.200,-210.000
355.600,-210.000
357.000,-210.000
358.400,-210.000
359.800,-210.000
361.200,-73.436
362.600,-210.000
364.000,-210.000
365.400,-210.000
366.800,-210.000
368.200,-210.000
369.600,-210.000
371.000,-210.000
372.400,-210.000
373.800,-210.000
375.200,-210.000
376.600,-210.000
378.000,-73.474
379.400,-68.773
380.800,-69.345
382.200,-70.004
383.600,-88.001
385.000,-210.000
386.400,-69.915
387.800,-210.000
389.200,-210.000
390.600,-210.000
392.000,-210.000
393.400,-71.234
394.800,-70.956
396.200,-70.694
397.600,-69.933
399.000,-69.285
400.400,-69.355
401.800,-76.676
403.200,-210.000
404.600,-210.000
406.000,-210.000
407.400,-210.000
408.800,-210.000
410.200,-210.000
411.600,-210.000
413.000,-210.000
414.400,-80.315
415.800,-71.844
417.200,-69.154
418.600,-71.622
420.000,-77.915
421.400,-74.105
422.800,-73.349
424.200,-72.705
425.600,-71.471
427.000,-70.512
428.400,-210.000
429.800,-210.000
431.200,-210.000
432.600,-210.000
434.000,-71.506
435.400,-72.565
436.800,-82.828
438.200,-210.000
439.600,-210.000
441.000,-76.363
442.400,-85.935
443.800,-75.762
445.200,-72.965
446.600,-72.883
448.000,-72.803
449.400,-72.253
450.800,-76.770
452.200,-210.000
453.600,-81.157
455.000,-74.846
456.400,-75.965
457.800,-210.000
459.200,-210.000
460.600,-210.000
462.000,-74.105
463.400,-85.845
464.800,-88.856
466.200,-210.000
467.600,-72.968
469.000,-69.958
470.400,-74.454
471.800,-77.464
473.200,-210.000
474.600,-210.000
476.000,-210.000
477.400,-210.000
478.800,-210.000
480.200,-210.000
481.600,-210.000
483.000,-210.000
484.400,-210.000
485.800,-210.000
487.200,-85.625
488.600,-75.905
490.000,-73.133
491.400,-79.665
492.800,-75.924
494.200,-73.945
495.600,-73.675
497.000,-73.421
498.400,-73.694
499.800,-75.322
501.200,-77.954
502.600,-73.158
504.000,-70.934
505.400,-80.914
506.800,-74.197
508.200,-71.676
509.600,-71.315
511.000,-70.981
512.400,-68.027
513.800,-69.282
515.200,-71.054
516.600,-71.265
518.000,-71.486
519.400,-78.456
520.800,-75.631
522.200,-73.934
523.600,-75.170
525.000,-76.904
526.400,-67.932
527.800,-68.939
529.200,-70.254
530.600,-69.838
532.000,-69.458
533.400,-73.475
534.800,-72.200
536.200,-71.216
537.600,-69.195
539.000,-67.822
540.400,-70.976
541.800,-69.893
543.200,-69.028
544.600,-70.770
546.000,-73.724
547.400,-68.206
548.800,-69.763
550.200,-72.215
551.600,-77.086
553.000,-210.000
554.400,-69.815
555.800,-70.949
557.200,-72.488
558.600,-73.246
560.000,-74.166
561.400,-71.156
562.800,-68.048
564.200,-66.255
565.600,-66.217
567.000,-66.181
568.400,-67.547
569.800,-67.222
571.200,-66.920
572.600,-68.481
574.000,-70.942
575.400,-70.952
576.800,-71.468
578.200,-72.053
579.600,-74.482
581.000,-80.494
582.400,-74.434
583.800,-72.383
585.200,-70.996
586.600,-71.692
588.000,-72.523
589.400,-70.886
590.800,-73.410
592.200,-80.154
593.600,-76.372
595.000,-74.382
596.400,-78.715
597.800,-78.654
599.200,-78.595
600.600,-70.260
602.000,-67.580
603.400,-65.983
604.800,-66.546
606.200,-67.192
607.600,-66.899
609.000,-66.624
610.400,-67.335
611.800,-67.131
613.200,-66.937
614.600,-65.906
616.000,-65.074
617.400,-67.094
618.800,-66.530
620.200,-66.031
621.600,-66.279
623.000,-66.542
624.400,-66.227
625.800,-66.986
627.200,-67.906
628.600,-68.340
630.000,-68.823
631.400,-69.252
632.800,-69.220
634.200,-69.188
635.600,-69.058
637.000,-68.932
638.400,-68.678
639.800,-68.417
641.200,-68.170
642.600,-68.665
644.000,-69.223
645.400,-67.757
646.800,-67.358
648.200,-66.992
649.600,-66.983
651.000,-66.974
652.400,-67.027
653.800,-66.328
655.200,-65.726
656.600,-65.913
658.000,-66.109
659.400,-65.756
660.800,-65.662
662.200,-65.569
663.600,-65.694
665.000,-65.822
666.400,-65.111
667.800,-65.134
669.200,-65.157
670.600,-65.490
672.000,-65.851
673.400,-66.186
674.800,-65.923
676.200,-65.674
677.600,-65.794
679.000,-65.916
680.400,-66.373
681.800,-66.271
683.200,-66.171
684.600,-65.865
686.000,-65.578
687.400,-66.531
688.800,-65.422
690.200,-64.540
691.600,-64.298
693.000,-64.068
694.400,-64.310
695.800,-64.027
697.200,-63.760
698.600,-63.534
700.000,-63.318
701.400,-64.302
702.800,-64.234
704.200,-64.167
705.600,-64.085
707.000,-64.004
708.400,-64.103
709.800,-64.778
711.200,-65.577
712.600,-65.777
714.000,-65.986
715.400,-65.955
716.800,-66.953
718.200,-68.252
719.600,-68.154
721.000,-68.057
722.400,-67.071
723.800,-67.806
725.200,-68.691
726.600,-67.629
728.000,-66.777
729.400,-66.665
730.800,-65.953
732.200,-65.342
733.600,-65.189
735.000,-65.041
736.400,-65.764
737.800,-65.749
739.200,-65.734
740.600,-65.808
742.000,-65.883
743.400,-66.465
744.800,-67.225
746.200,-68.147
747.600,-67.956
749.000,-67.773
750.400,-68.869
751.800,-68.724
753.200,-68.584
754.600,-67.797
756.000,-67.132
757.400,-67.357
758.800,-67.052
760.200,-66.766
761.600,-66.724
763.000,-66.681
764.400,-65.665
765.800,-65.295
767.200,-64.953
768.600,-65.227
770.000,-65.519
771.400,-65.673
772.800,-65.061
774.200,-64.524
775.600,-64.242
777.000,-63.977
778.400,-64.614
779.800,-64.643
781.200,-64.673
782.600,-63.635
784.000,-62.797
785.400,-62.919
786.800,-63.512
788.200,-64.199
789.600,-64.387
791.000,-64.583
792.400,-63.878
793.800,-63.856
795.200,-63.833
796.600,-64.655
798.000,-65.671
799.400,-65.771
800.800,-64.925
802.200,-64.217
803.600,-63.835
805.000,-63.484
806.400,-64.301
807.800,-65.264
809.200,-66.504
810.600,-65.167
812.000,-64.146
813.400,-64.193
814.800,-65.258
816.200,-66.672
817.600,-67.686
819.000,-69.010
820.400,-69.172
821.800,-69.341
823.200,-68.643
824.600,-69.061
826.000,-69.525
827.400,-70.331
828.800,-71.322
830.200,-73.634
831.600,-71.601
833.000,-70.222
834.400,-70.604
835.800,-71.022
837.200,-68.232
838.600,-68.694
840.000,-69.212
841.400,-69.049
842.800,-68.891
844.200,-68.056
845.600,-66.784
847.000,-65.801
848.400,-66.090
849.800,-66.400
851.200,-66.360
852.600,-66.676
854.000,-67.016
855.400,-66.287
856.800,-65.663
858.200,-65.501
859.600,-65.809
861.000,-66.141
862.400,-66.506
863.800,-66.906
865.200,-67.102
866.600,-65.976
868.000,-65.083
869.400,-64.611
870.800,-64.186
872.200,-64.336
873.600,-64.739
875.000,-65.183
876.400,-65.226
877.800,-65.269
879.200,-65.134
880.600,-64.001
882.000,-63.104
883.400,-62.752
884.800,-62.427
886.200,-62.706
887.600,-63.498
889.000,-64.467
890.400,-63.923
891.800,-63.440
893.200,-62.604
894.600,-62.146
896.000,-61.732
897.400,-62.377
898.800,-63.135
900.200,-64.721
901.600,-64.983
903.000,-65.261
904.400,-64.272
905.800,-63.466
907.200,-62.961
908.600,-63.266
910.000,-63.595
911.400,-64.122
912.800,-64.722
914.200,-65.106
915.600,-64.149
917.000,-63.365
918.400,-62.431
919.800,-61.663
921.200,-61.732
922.600,-62.137
924.000,-62.584
925.400,-62.925
926.800,-63.294
928.200,-64.107
929.600,-63.881
931.000,-63.667
932.400,-63.556
933.800,-63.448
935.200,-63.946
936.600,-64.477
938.000,-65.081
939.400,-64.955
940.800,-64.832
942.200,-65.475
943.600,-65.286
945.000,-65.105
946.400,-64.961
947.800,-64.821
949.200,-64.626
950.600,-64.147
952.000,-63.715
953.400,-63.745
954.800,-63.776
956.200,-64.124
957.600,-64.440
959.000,-64.782
960.400,-64.289
961.800,-63.847
963.200,-63.897
964.600,-63.312
966.000,-62.796
967.400,-62.696
968.800,-62.598
970.200,-63.162
971.600,-63.697
973.000,-64.307
974.400,-64.282
975.800,-64.258
977.200,-64.577
978.600,-64.374
980.000,-64.181
981.400,-64.231
982.800,-64.281
984.200,-64.847
985.600,-65.847
987.000,-67.148
988.400,-67.502
989.800,-67.888
991.200,-67.980
992.600,-67.746
994.000,-67.525
995.400,-67.803
996.800,-68.100
998.200,-67.469
999.600,-69.013
1001.000,-71.430
1002.400,-70.925
1003.800,-70.474
1005.200,-70.075
1006.600,-68.694
1008.000,-67.648
1009.400,-68.055
1010.800,-68.503
1012.200,-69.577
1013.600,-69.894
1015.000,-70.236
1016.400,-71.137
1017.800,-72.274
1019.200,-70.093
1020.600,-68.560
1022.000,-67.429
1023.400,-66.921
1024.800,-66.466
1026.200,-65.916
1027.600,-66.860
1029.000,-68.067
1030.400,-66.986
1031.800,-66.121
1033.200,-66.583
1034.600,-65.941
1036.000,-65.382
1037.400,-63.936
1038.800,-62.853
1040.200,-62.697
1041.600,-62.992
1043.000,-63.309
1044.400,-63.893
1045.800,-64.568
1047.200,-63.956
1048.600,-63.695
1050.000,-63.449
1051.400,-63.448
1052.800,-63.447
1054.200,-63.108
1055.600,-62.411
1057.000,-61.811
1058.400,-61.786
1059.800,-61.760
1061.200,-62.097
1062.600,-52.394
1064.000,-49.622
1065.400,-49.717
1066.800,-49.815
1068.200,-61.043
1069.600,-61.806
1071.000,-62.733
1072.400,-61.830
1073.800,-61.082
1075.200,-59.834
1076.600,-59.340
1078.000,-58.896
1079.400,-59.094
1080.800,-59.303
1082.200,-59.448
1083.600,-59.398
1085.000,-59.349
1086.400,-59.850
1087.800,-60.418
1089.200,-61.548
1090.600,-61.533
1092.000,-61.517
1093.400,-60.957
1094.800,-60.460
1096.200,-60.628
1097.600,-61.110
1099.000,-61.653
1100.400,-61.903
1101.800,-62.167
1103.200,-61.785
1104.600,-62.442
1106.000,-63.218
1107.400,-64.340
1108.800,-65.856
1110.200,-65.836
1111.600,-65.221
1113.000,-64.681
1114.400,-64.389
1115.800,-64.115
1117.200,-64.796
1118.600,-64.639
1120.000,-64.487
1121.400,-64.136
1122.800,-63.810
1124.200,-64.085
1125.600,-64.815
1127.000,-65.694
1128.400,-66.400
1129.800,-67.243
1131.200,-66.258
1132.600,-65.114
1134.000,-64.210
1135.400,-63.845
1136.800,-63.508
1138.200,-63.746
1139.600,-64.094
1141.000,-64.473
1142.400,-64.088
1143.800,-63.734
1145.200,-63.942
1146.600,-64.628
1148.000,-65.443
1149.400,-66.121
1150.800,-66.924
1152.200,-65.141
1153.600,-64.061
1155.000,-63.197
1156.400,-63.319
1157.800,-63.445
1159.200,-64.145
1160.600,-64.199
1162.000,-64.253
1163.400,-64.107
1164.800,-63.966
1166.200,-64.024
1167.600,-64.850
1169.000,-65.871
1170.400,-66.625
1171.800,-67.539
1173.200,-66.909
1174.600,-66.118
1176.000,-65.450
1177.400,-65.234
1178.800,-65.029
1180.200,-64.925
1181.600,-64.918
1183.000,-64.911
1184.400,-64.198
1185.800,-63.585
1187.200,-63.105
1188.600,-63.474
1190.000,-63.877
1191.400,-65.240
1192.800,-67.236
1194.200,-67.341
1195.600,-66.714
1197.000,-66.167
1198.400,-65.404
1199.800,-64.756
1201.200,-65.130
1202.600,-65.094
1204.000,-65.058
1205.400,-64.967
1206.800,-64.877
1208.200,-64.623
1209.600,-64.744
1211.000,-64.869
1212.400,-65.986
1213.800,-67.492
1215.200,-68.620
1216.600,-69.202
1218.000,-69.874
1219.400,-69.077
1220.800,-68.404
1222.200,-68.259
1223.600,-68.160
1225.000,-68.064
1226.400,-67.902
1227.800,-67.746
1229.200,-67.544
1230.600,-68.217
1232.000,-69.013
1233.400,-68.780
1234.800,-68.560
1236.200,-70.100
1237.600,-70.376
1239.000,-70.671
1240.400,-70.968
1241.800,-71.288
1243.200,-71.365
1244.600,-69.461
1246.000,-68.142
1247.400,-67.845
1248.800,-67.568
1250.200,-67.169
1251.600,-67.649
1253.000,-68.190
1254.400,-67.945
1255.800,-67.714
1257.200,-67.520
1258.600,-67.319
1260.000,-67.128
1261.400,-67.689
1262.800,-68.335
1264.200,-69.988
1265.600,-70.353
1267.000,-70.750
1268.400,-69.519
1269.800,-68.560
1271.200,-67.157
1272.600,-67.414
1274.000,-67.688
1275.400,-68.600
1276.800,-69.756
1278.200,-70.150
1279.600,-70.227
1281.000,-70.305
1282.400,-70.068
1283.800,-69.843
1285.200,-69.614
1286.600,-69.396
1288.000,-69.923
1289.400,-70.296
1290.800,-70.704
1292.200,-71.361
1293.600,-72.134
1295.000,-71.827
1296.400,-70.609
1297.800,-69.659
1299.200,-69.882
1300.600,-70.118
1302.000,-69.669
1303.400,-69.389
1304.800,-69.126
1306.200,-68.617
1307.600,-68.162
1309.000,-68.554
1310.400,-68.282
1311.800,-68.026
1313.200,-68.386
1314.600,-68.778
1316.000,-69.823
1317.400,-70.771
1318.800,-71.986
1320.200,-72.506
1321.600,-73.098
1323.000,-71.439
1324.400,-71.601
1325.800,-71.770
1327.200,-71.578
1328.600,-71.394
1330.000,-72.345
1331.400,-71.261
1332.800,-70.395
1334.200,-71.088
1335.600,-71.913
1337.000,-72.082
1338.400,-72.047
1339.800,-72.012
1341.200,-72.538
1342.600,-73.136
1344.000,-72.615
1345.400,-74.641
1346.800,-78.559
1348.200,-76.765
1349.600,-75.499
1351.000,-73.516
1352.400,-72.453
1353.800,-71.600
1355.200,-72.081
1356.600,-72.623
1358.000,-73.051
1359.400,-72.600
1360.800,-72.192
1362.200,-72.431
1363.600,-72.683
1365.000,-72.593
1366.400,-73.338
1367.800,-74.238
1369.200,-74.186
1370.600,-74.134
1372.000,-77.445
1373.400,-77.893
1374.800,-78.394
1376.200,-77.965
1377.600,-77.576
1379.000,-76.693
1380.400,-76.393
1381.800,-76.112
1383.200,-77.045
1384.600,-78.233
1386.000,-75.085
1387.400,-76.588
1388.800,-78.906
1390.200,-77.085
1391.600,-75.805
1393.000,-78.702
1394.400,-78.522
1395.800,-78.349
1397.200,-81.003
1398.600,-89.038
1400.000,-78.036
1401.400,-76.219
1402.800,-74.942
1404.200,-75.410
1405.600,-75.934
1407.000,-77.574
1408.400,-77.629
1409.800,-77.684
1411.200,-77.037
1412.600,-76.475
1414.000,-77.453
1415.400,-76.429
1416.800,-75.602
1418.200,-75.397
1419.600,-75.202
1421.000,-73.258
1422.400,-74.028
1423.800,-74.966
1425.200,-74.059
1426.600,-73.309
1428.000,-74.461
1429.400,-72.605
1430.800,-71.309
1432.200,-71.222
1433.600,-71.137
1435.000,-71.147
1436.400,-72.724
1437.800,-75.226
1439.200,-76.504
1440.600,-78.322
1442.000,-75.378
1443.400,-74.728
1444.800,-74.162
1446.200,-73.374
1447.600,-72.707
1449.000,-72.873
1450.400,-73.631
1451.800,-74.551
1453.200,-74.376
1454.600,-74.207
1456.000,-75.603
1457.400,-75.218
1458.800,-74.864
1460.200,-74.297
1461.600,-73.796
1463.000,-72.772
1464.400,-72.515
1465.800,-72.272
1467.200,-72.176
1468.600,-72.081
1470.000,-73.796
1471.400,-74.384
1472.800,-75.065
1474.200,-76.152
1475.600,-77.607
1477.000,-77.637
1478.400,-76.112
1479.800,-74.986
1481.200,-75.348
1482.600,-75.744
1484.000,-76.160
1485.400,-76.716
1486.800,-77.353
1488.200,-76.644
1489.600,-76.036
1491.000,-75.048
1492.400,-74.948
1493.800,-74.851
1495.200,-74.892
1496.600,-74.934
1498.000,-76.424
1499.400,-75.583
1500.800,-74.878
1502.200,-74.657
1503.600,-74.447
1505.000,-76.534
1506.400,-78.103
1507.800,-80.585
1509.200,-81.373
1510.600,-82.336
1512.000,-210.000
1513.400,-81.408
1514.800,-78.095
1516.200,-78.032
1517.600,-77.969
1519.000,-74.921
1520.400,-76.430
1521.800,-78.764
1523.200,-76.511
1524.600,-75.035
1526.000,-75.699
1527.400,-75.758
1528.800,-75.818
1530.200,-76.585
1531.600,-77.517
1533.000,-76.063
1534.400,-76.537
1535.800,-77.070
1537.200,-75.898
1538.600,-74.976
1540.000,-75.034
1541.400,-75.527
1542.800,-76.083
1544.200,-77.342
1545.600,-79.123
1547.000,-82.454
1548.400,-82.889
1549.800,-83.373
1551.200,-80.478
1552.600,-78.756
1554.000,-76.574
1555.400,-74.807
1556.800,-73.554
1558.200,-74.281
1559.600,-75.155
1561.000,-75.406
1562.400,-75.365
1563.800,-75.324
1565.200,-76.054
1566.600,-76.931
1568.000,-77.921
1569.400,-77.036
1570.800,-76.300
1572.200,-76.709
1573.600,-77.160
1575.000,-77.971
1576.400,-76.810
1577.800,-75.895
1579.200,-76.893
1580.600,-78.189
1582.000,-78.994
1583.400,-79.115
1584.800,-79.239
1586.200,-79.413
1587.600,-79.593
1589.000,-84.355
1590.400,-81.030
1591.800,-79.169
1593.200,-77.700
1594.600,-76.604
1596.000,-75.878
1597.400,-76.844
1598.800,-78.087
1600.200,-77.747
1601.600,-77.432
1603.000,-79.066
1604.400,-79.827
1605.800,-80.750
1607.200,-79.905
1608.600,-79.199
1610.000,-76.624
1611.400,-77.036
1612.800,-77.493
1614.200,-79.536
1615.600,-83.523
1617.000,-78.496
1618.400,-82.878
1619.800,-210.000
1621.200,-83.169
1622.600,-78.707
1624.000,-78.974
1625.400,-80.481
1626.800,-82.808
1628.200,-79.797
1629.600,-78.036
1631.000,-210.000
1632.400,-83.259
1633.800,-80.156
1635.200,-77.617
1636.600,-76.026
1638.000,-81.874
1639.400,-84.106
1640.800,-88.946
1642.200,-84.231
1643.600,-82.023
1645.000,-81.836
1646.400,-79.226
1647.800,-77.606
1649.200,-79.702
1650.600,-83.905
1652.000,-76.924
1653.400,-77.576
1654.800,-78.344
1656.200,-80.827
1657.600,-87.237
1659.000,-77.251
1660.400,-77.938
1661.800,-78.755
1663.200,-80.533
1664.600,-83.596
1666.000,-76.013
1667.400,-79.657
1668.800,-210.000
1670.200,-210.000
1671.600,-210.000
1673.000,-210.000
1674.400,-210.000
1675.800,-89.026
1677.200,-83.101
1678.600,-80.685
1680.000,-210.000
1681.400,-210.000
1682.800,-78.138
1684.200,-77.875
1685.600,-77.628
1687.000,-210.000
1688.400,-210.000
1689.800,-82.816
1691.200,-78.916
1692.600,-76.895
1694.000,-76.473
1695.400,-72.220
1696.800,-70.112
1698.200,-71.746
1699.600,-74.393
1701.000,-210.000
1702.400,-210.000
1703.800,-80.616
1705.200,-210.000
1706.600,-210.000
1708.000,-70.079
1709.400,-73.010
1710.800,-87.407
1712.200,-78.705
1713.600,-75.998
1715.000,-71.087
1716.400,-75.485
1717.800,-210.000
1719.200,-73.242
1720.600,-69.352
1722.000,-210.000
1723.400,-210.000
1724.800,-210.000
1726.200,-70.467
1727.600,-66.603
1729.000,-210.000
1730.400,-210.000
1731.800,-75.355
1733.200,-78.365
1734.600,-210.000
1736.000,-72.557
1737.400,-74.457
1738.800,-77.917
1740.200,-73.006
1741.600,-70.760
1743.000,-210.000
1744.400,-75.964
1745.800,-69.745
1747.200,-70.123
1748.600,-70.536
1750.000,-68.228
