Wavelength [nm],Transmission [dB]
350.000,-63.845
351.400,-73.915
352.800,-210.000
354.200,-210.000
355.600,-210.000
357.000,-210.000
358.400,-71.834
359.800,-210.000
361.200,-210.000
362.600,-210.000
364.000,-210.000
365.400,-65.062
366.800,-68.191
368.200,-210.000
369.600,-210.000
371.000,-210.000
372.400,-210.000
373.800,-210.000
375.200,-72.664
376.600,-210.000
378.000,-210.000
379.400,-210.000
380.800,-210.000
382.200,-70.674
383.600,-71.969
385.000,-73.824
386.400,-68.058
387.800,-76.530
389.200,-210.000
390.600,-210.000
392.000,-81.955
393.400,-210.000
394.800,-210.000
396.200,-210.000
397.600,-90.364
399.000,-68.871
400.400,-210.000
401.800,-210.000
403.200,-210.000
404.600,-210.000
406.000,-210.000
407.400,-71.576
408.800,-210.000
410.200,-210.000
411.600,-210.000
413.000,-210.000
414.400,-210.000
415.800,-75.022
417.200,-70.201
418.600,-74.737
420.000,-210.000
421.400,-210.000
422.800,-210.000
424.200,-210.000
425.600,-210.000
427.000,-210.000
428.400,-210.000
429.800,-210.000
431.200,-210.000
432.600,-210.000
434.000,-210.000
435.400,-210.000
436.800,-210.000
438.200,-210.000
439.600,-210.000
441.000,-210.000
442.400,-71.622
443.800,-72.151
445.200,-72.753
446.600,-74.229
448.000,-76.483
449.400,-72.833
450.800,-77.313
452.200,-210.000
453.600,-210.000
455.000,-210.000
456.400,-82.955
457.800,-75.708
459.200,-73.128
460.600,-72.563
462.000,-72.063
463.400,-210.000
464.800,-210.000
466.200,-85.795
467.600,-88.806
469.000,-210.000
470.400,-75.245
471.800,-73.671
473.200,-72.518
474.600,-79.747
476.000,-210.000
477.400,-72.618
478.800,-71.924
480.200,-71.326
481.600,-71.791
483.000,-72.313
484.400,-210.000
485.800,-78.272
487.200,-72.615
488.600,-72.645
490.000,-72.675
491.400,-69.351
492.800,-70.848
494.200,-73.153
495.600,-73.811
497.000,-74.586
498.400,-68.254
499.800,-69.155
501.200,-70.295
502.600,-69.333
504.000,-68.545
505.400,-70.371
506.800,-68.992
508.200,-67.947
509.600,-69.408
511.000,-71.626
512.400,-68.425
513.800,-67.557
515.200,-66.833
516.600,-66.803
518.000,-66.773
519.400,-65.192
520.800,-65.646
522.200,-66.153
523.600,-66.836
525.000,-67.647
526.400,-66.414
527.800,-66.051
529.200,-65.715
530.600,-66.040
532.000,-66.391
533.400,-67.677
534.800,-67.151
536.200,-66.683
537.600,-66.507
539.000,-66.337
540.400,-65.987
541.800,-66.446
543.200,-66.960
544.600,-66.115
546.000,-65.408
547.400,-65.109
548.800,-65.964
550.200,-67.030
551.600,-65.720
553.000,-64.715
554.400,-64.763
555.800,-65.178
557.200,-65.638
558.600,-65.060
560.000,-64.550
561.400,-65.305
562.800,-65.252
564.200,-65.199
565.600,-65.043
567.000,-64.891
568.400,-64.962
569.800,-64.719
571.200,-64.490
572.600,-64.387
574.000,-64.286
575.400,-64.696
576.800,-64.663
578.200,-64.631
579.600,-64.778
581.000,-64.931
582.400,-64.153
583.800,-64.045
585.200,-63.940
586.600,-63.872
588.000,-63.804
589.400,-63.076
590.800,-63.049
592.200,-63.022
593.600,-62.886
595.000,-62.754
596.400,-62.482
597.800,-62.748
599.200,-63.032
600.600,-61.877
602.000,-60.966
603.400,-61.046
604.800,-61.056
606.200,-61.065
607.600,-61.165
609.000,-61.266
610.400,-60.840
611.800,-60.779
613.200,-60.718
614.600,-60.880
616.000,-61.049
617.400,-61.353
618.800,-61.357
620.200,-61.362
621.600,-61.369
623.000,-61.376
624.400,-60.860
625.800,-60.961
627.200,-61.064
628.600,-60.757
630.000,-60.470
631.400,-60.576
632.800,-60.392
634.200,-60.215
635.600,-60.071
637.000,-59.932
638.400,-59.831
639.800,-59.816
641.200,-59.802
642.600,-59.954
644.000,-60.111
645.400,-60.245
646.800,-60.323
648.200,-60.403
649.600,-60.453
651.000,-60.505
652.400,-60.434
653.800,-60.635
655.200,-60.846
656.600,-61.055
658.000,-61.275
659.400,-61.060
660.800,-61.030
662.200,-61.000
663.600,-60.927
665.000,-60.855
666.400,-60.819
667.800,-60.425
669.200,-60.065
670.600,-59.939
672.000,-59.817
673.400,-60.189
674.800,-60.289
676.200,-60.391
677.600,-60.227
679.000,-60.069
680.400,-60.161
681.800,-60.579
683.200,-61.043
684.600,-60.987
686.000,-60.932
687.400,-60.566
688.800,-60.330
690.200,-60.106
691.600,-60.305
693.000,-60.514
694.400,-60.169
695.800,-59.539
697.200,-58.989
698.600,-59.090
700.000,-59.192
701.400,-59.225
702.800,-58.920
704.200,-58.635
705.600,-58.696
707.000,-58.758
708.400,-59.213
709.800,-59.320
711.200,-59.430
712.600,-58.744
714.000,-58.152
715.400,-57.956
716.800,-58.387
718.200,-58.866
719.600,-59.293
721.000,-59.766
722.400,-59.281
723.800,-58.892
725.200,-58.535
726.600,-58.920
728.000,-59.343
729.400,-59.998
730.800,-60.041
732.200,-60.083
733.600,-59.733
735.000,-59.409
736.400,-59.707
737.800,-60.115
739.200,-60.566
740.600,-60.340
742.000,-60.124
743.400,-59.348
744.800,-59.362
746.200,-59.376
747.600,-59.721
749.000,-60.095
750.400,-60.630
751.800,-60.328
753.200,-60.045
754.600,-60.079
756.000,-60.113
757.400,-60.508
758.800,-60.935
760.200,-61.410
761.600,-61.136
763.000,-60.878
764.400,-60.007
765.800,-59.933
767.200,-59.860
768.600,-60.278
770.000,-60.741
771.400,-62.063
772.800,-61.672
774.200,-61.313
775.600,-61.031
777.000,-60.766
778.400,-60.985
779.800,-61.387
781.200,-61.829
782.600,-61.987
784.000,-62.151
785.400,-61.743
786.800,-61.125
788.200,-60.584
789.600,-60.406
791.000,-60.236
792.400,-60.954
793.800,-60.947
795.200,-60.940
796.600,-60.654
798.000,-60.386
799.400,-60.214
800.800,-60.035
802.200,-59.864
803.600,-60.313
805.000,-60.813
806.400,-61.506
807.800,-60.587
809.200,-59.828
810.600,-58.952
812.000,-58.224
813.400,-58.262
814.800,-59.121
816.200,-60.193
817.600,-60.823
819.000,-61.561
820.400,-60.241
821.800,-59.229
823.200,-59.065
824.600,-58.879
826.000,-58.701
827.400,-59.340
828.800,-60.090
830.200,-60.762
831.600,-59.642
833.000,-58.752
834.400,-57.681
835.800,-56.822
837.200,-56.521
838.600,-57.301
840.000,-58.252
841.400,-59.454
842.800,-61.123
844.200,-61.195
845.600,-60.307
847.000,-59.569
848.400,-58.594
849.800,-57.799
851.200,-57.610
852.600,-58.197
854.000,-58.877
855.400,-59.713
856.800,-60.750
858.200,-60.370
859.600,-59.866
861.000,-59.415
862.400,-59.069
863.800,-58.748
865.200,-58.980
866.600,-59.584
868.000,-60.286
869.400,-60.929
870.800,-61.685
872.200,-61.691
873.600,-61.181
875.000,-60.724
876.400,-60.523
877.800,-60.331
879.200,-60.186
880.600,-60.441
882.000,-60.711
883.400,-61.467
884.800,-62.383
886.200,-62.915
887.600,-62.490
889.000,-62.104
890.400,-61.424
891.800,-60.836
893.200,-60.018
894.600,-60.265
896.000,-60.527
897.400,-61.133
898.800,-61.838
900.200,-62.346
901.600,-62.203
903.000,-62.064
904.400,-60.960
905.800,-60.081
907.200,-59.002
908.600,-58.912
910.000,-58.824
911.400,-59.800
912.800,-61.060
914.200,-62.366
915.600,-62.621
917.000,-62.892
918.400,-61.521
919.800,-60.481
921.200,-59.285
922.600,-58.714
924.000,-58.210
925.400,-58.900
926.800,-59.722
928.200,-60.725
929.600,-62.147
931.000,-64.276
932.400,-63.895
933.800,-63.545
935.200,-61.795
936.600,-60.832
938.000,-60.045
939.400,-59.876
940.800,-59.713
942.200,-60.340
943.600,-61.099
945.000,-62.019
946.400,-62.968
947.800,-64.184
949.200,-63.092
950.600,-61.935
952.000,-61.022
953.400,-60.155
954.800,-59.432
956.200,-59.094
957.600,-59.280
959.000,-59.475
960.400,-60.480
961.800,-61.790
963.200,-63.588
964.600,-64.146
966.000,-64.787
967.400,-64.083
968.800,-63.477
970.200,-62.532
971.600,-61.973
973.000,-61.477
974.400,-60.869
975.800,-60.335
977.200,-60.530
978.600,-61.373
980.000,-62.420
981.400,-63.177
982.800,-64.095
984.200,-62.711
985.600,-61.827
987.000,-61.093
988.400,-60.924
989.800,-60.761
991.200,-60.798
992.600,-60.441
994.000,-60.112
995.400,-60.480
996.800,-60.882
998.200,-62.222
999.600,-62.927
1001.000,-63.769
1002.400,-63.162
1003.800,-62.629
1005.200,-62.258
1006.600,-61.846
1008.000,-61.470
1009.400,-61.662
1010.800,-61.863
1012.200,-62.051
1013.600,-62.198
1015.000,-62.349
1016.400,-62.566
1017.800,-62.794
1019.200,-63.996
1020.600,-63.925
1022.000,-63.855
1023.400,-62.485
1024.800,-61.445
1026.200,-60.910
1027.600,-60.887
1029.000,-60.864
1030.400,-60.774
1031.800,-60.686
1033.200,-60.847
1034.600,-61.430
1036.000,-62.103
1037.400,-63.008
1038.800,-64.153
1040.200,-63.635
1041.600,-62.726
1043.000,-61.976
1044.400,-61.841
1045.800,-61.711
1047.200,-61.995
1048.600,-61.879
1050.000,-61.766
1051.400,-61.749
1052.800,-61.731
1054.200,-61.591
1055.600,-62.486
1057.000,-63.614
1058.400,-62.866
1059.800,-62.228
1061.200,-60.143
1062.600,-55.695
1064.000,-53.544
1065.400,-53.694
1066.800,-53.850
1068.200,-59.405
1069.600,-59.825
1071.000,-60.289
1072.400,-59.848
1073.800,-59.448
1075.200,-58.958
1076.600,-58.363
1078.000,-57.840
1079.400,-56.434
1080.800,-55.374
1082.200,-56.145
1083.600,-57.000
1085.000,-58.066
1086.400,-58.596
1087.800,-59.199
1089.200,-59.086
1090.600,-59.085
1092.000,-59.083
1093.400,-58.728
1094.800,-58.399
1096.200,-58.326
1097.600,-59.057
1099.000,-59.936
1100.400,-59.928
1101.800,-59.920
1103.200,-60.102
1104.600,-60.638
1106.000,-61.250
1107.400,-60.822
1108.800,-60.432
1110.200,-59.351
1111.600,-59.023
1113.000,-58.719
1114.400,-59.218
1115.800,-59.783
1117.200,-59.830
1118.600,-59.535
1120.000,-59.259
1121.400,-59.800
1122.800,-60.418
1124.200,-61.304
1125.600,-61.913
1127.000,-62.620
1128.400,-62.331
1129.800,-62.060
1131.200,-61.514
1132.600,-61.471
1134.000,-61.427
1135.400,-61.031
1136.800,-60.669
1138.200,-60.899
1139.600,-61.528
1141.000,-62.265
1142.400,-62.050
1143.800,-61.845
1145.200,-61.555
1146.600,-61.768
1148.000,-61.992
1149.400,-62.076
1150.800,-62.162
1152.200,-62.965
1153.600,-62.881
1155.000,-62.799
1156.400,-62.635
1157.800,-62.477
1159.200,-62.722
1160.600,-63.081
1162.000,-63.471
1163.400,-63.630
1164.800,-63.795
1166.200,-63.063
1167.600,-62.800
1169.000,-62.551
1170.400,-62.617
1171.800,-62.684
1173.200,-63.208
1174.600,-63.194
1176.000,-63.180
1177.400,-62.757
1178.800,-62.372
1180.200,-62.956
1181.600,-63.068
1183.000,-63.182
1184.400,-61.994
1185.800,-61.062
1187.200,-60.392
1188.600,-61.196
1190.000,-62.185
1191.400,-62.591
1192.800,-63.039
1194.200,-62.755
1195.600,-62.205
1197.000,-61.716
1198.400,-61.867
1199.800,-62.023
1201.200,-62.060
1202.600,-62.323
1204.000,-62.602
1205.400,-61.973
1206.800,-61.423
1208.200,-60.949
1209.600,-60.886
1211.000,-60.824
1212.400,-60.951
1213.800,-61.083
1215.200,-61.335
1216.600,-61.775
1218.000,-62.265
1219.400,-62.649
1220.800,-63.070
1222.200,-63.383
1223.600,-63.491
1225.000,-63.601
1226.400,-63.662
1227.800,-63.723
1229.200,-63.300
1230.600,-62.560
1232.000,-61.929
1233.400,-61.385
1234.800,-60.903
1236.200,-60.659
1237.600,-61.685
1239.000,-63.029
1240.400,-63.155
1241.800,-63.284
1243.200,-62.866
1244.600,-63.323
1246.000,-63.835
1247.400,-64.152
1248.800,-64.494
1250.200,-65.255
1251.600,-64.046
1253.000,-63.102
1254.400,-63.230
1255.800,-63.361
1257.200,-63.703
1258.600,-63.993
1260.000,-64.302
1261.400,-63.759
1262.800,-63.276
1264.200,-62.775
1265.600,-63.217
1267.000,-63.710
1268.400,-64.268
1269.800,-64.909
1271.200,-64.774
1272.600,-64.632
1274.000,-64.495
1275.400,-64.676
1276.800,-64.865
1278.200,-64.743
1279.600,-65.043
1281.000,-65.364
1282.400,-65.544
1283.800,-65.732
1285.200,-65.467
1286.600,-65.217
1288.000,-65.925
1289.400,-65.367
1290.800,-64.872
1292.200,-63.471
1293.600,-62.413
1295.000,-61.372
1296.400,-61.907
1297.800,-62.518
1299.200,-63.635
1300.600,-65.141
1302.000,-65.599
1303.400,-65.672
1304.800,-65.747
1306.200,-66.352
1307.600,-67.055
1309.000,-66.872
1310.400,-66.781
1311.800,-66.691
1313.200,-66.440
1314.600,-66.203
1316.000,-65.857
1317.400,-65.769
1318.800,-65.683
1320.200,-66.272
1321.600,-66.953
1323.000,-67.369
1324.400,-66.532
1325.800,-65.830
1327.200,-64.902
1328.600,-64.138
1330.000,-63.872
1331.400,-63.306
1332.800,-62.806
1334.200,-63.271
1335.600,-63.792
1337.000,-64.818
1338.400,-65.206
1339.800,-65.631
1341.200,-65.728
1342.600,-65.826
1344.000,-65.993
1345.400,-66.373
1346.800,-66.788
1348.200,-66.962
1349.600,-67.143
1351.000,-67.189
1352.400,-67.561
1353.800,-67.968
1355.200,-66.567
1356.600,-65.509
1358.000,-64.746
1359.400,-64.752
1360.800,-64.758
1362.200,-65.206
1363.600,-65.706
1365.000,-66.024
1366.400,-66.471
1367.800,-66.969
1369.200,-67.176
1370.600,-67.392
1372.000,-67.488
1373.400,-67.256
1374.800,-67.035
1376.200,-67.035
1377.600,-67.034
1379.000,-67.388
1380.400,-67.030
1381.800,-66.699
1383.200,-66.629
1384.600,-66.559
1386.000,-67.356
1387.400,-67.931
1388.800,-68.595
1390.200,-68.760
1391.600,-68.932
1393.000,-67.662
1394.400,-66.561
1395.800,-65.683
1397.200,-64.521
1398.600,-63.605
1400.000,-63.579
1401.400,-64.259
1402.800,-65.065
1404.200,-65.784
1405.600,-66.645
1407.000,-67.198
1408.400,-67.172
1409.800,-67.146
1411.200,-67.669
1412.600,-68.263
1414.000,-68.774
1415.400,-69.397
1416.800,-70.125
1418.200,-70.259
1419.600,-70.398
1421.000,-70.386
1422.400,-70.274
1423.800,-70.164
1425.200,-68.939
1426.600,-67.984
1428.000,-67.373
1429.400,-66.779
1430.800,-66.256
1432.200,-64.765
1433.600,-63.658
1435.000,-62.582
1436.400,-62.605
1437.800,-62.629
1439.200,-63.188
1440.600,-63.829
1442.000,-64.611
1443.400,-65.493
1444.800,-66.601
1446.200,-67.779
1447.600,-69.401
1449.000,-69.966
1450.400,-70.243
1451.800,-70.539
1453.200,-69.854
1454.600,-69.262
1456.000,-68.684
1457.400,-69.056
1458.800,-69.462
1460.200,-69.565
1461.600,-69.671
1463.000,-70.879
1464.400,-70.320
1465.800,-69.826
1467.200,-67.729
1468.600,-66.321
1470.000,-65.856
1471.400,-66.042
1472.800,-66.237
1474.200,-65.172
1475.600,-64.318
1477.000,-63.552
1478.400,-63.962
1479.800,-64.416
1481.200,-65.639
1482.600,-67.347
1484.000,-68.487
1485.400,-69.191
1486.800,-70.031
1488.200,-71.460
1489.600,-73.605
1491.000,-73.513
1492.400,-72.884
1493.800,-72.335
1495.200,-72.176
1496.600,-72.023
1498.000,-72.335
1499.400,-72.037
1500.800,-71.759
1502.200,-71.556
1503.600,-71.362
1505.000,-71.872
1506.400,-70.900
1507.800,-70.106
1509.200,-69.249
1510.600,-68.534
1512.000,-67.462
1513.400,-66.770
1514.800,-66.173
1516.200,-65.718
1517.600,-65.307
1519.000,-65.621
1520.400,-66.447
1521.800,-67.468
1523.200,-68.001
1524.600,-68.608
1526.000,-69.818
1527.400,-70.758
1528.800,-71.961
1530.200,-72.074
1531.600,-72.190
1533.000,-71.575
1534.400,-72.378
1535.800,-73.363
1537.200,-72.978
1538.600,-72.625
1540.000,-73.090
1541.400,-72.713
1542.800,-72.366
1544.200,-73.505
1545.600,-75.055
1547.000,-73.545
1548.400,-71.909
1549.800,-70.723
1551.200,-69.199
1552.600,-68.073
1554.000,-68.586
1555.400,-68.284
1556.800,-68.001
1558.200,-66.736
1559.600,-65.758
1561.000,-64.322
1562.400,-63.433
1563.800,-62.696
1565.200,-62.793
1566.600,-62.892
1568.000,-63.228
1569.400,-64.605
1570.800,-66.634
1572.200,-68.197
1573.600,-70.664
1575.000,-72.384
1576.400,-72.024
1577.800,-71.691
1579.200,-72.217
1580.600,-72.814
1582.000,-72.788
1583.400,-72.433
1584.800,-72.104
1586.200,-72.104
1587.600,-72.103
1589.000,-73.624
1590.400,-73.428
1591.800,-73.241
1593.200,-73.913
1594.600,-74.709
1596.000,-73.646
1597.400,-74.291
1598.800,-75.048
1600.200,-73.271
1601.600,-72.013
1603.000,-70.344
1604.400,-68.319
1605.800,-66.943
1607.200,-65.496
1608.600,-64.413
1610.000,-64.164
1611.400,-63.839
1612.800,-63.537
1614.200,-64.549
1615.600,-65.872
1617.000,-68.083
1618.400,-69.400
1619.800,-71.299
1621.200,-72.118
1622.600,-73.129
1624.000,-72.784
1625.400,-71.958
1626.800,-71.264
1628.200,-71.258
1629.600,-71.252
1631.000,-71.559
1632.400,-71.448
1633.800,-71.339
1635.200,-72.487
1636.600,-74.053
1638.000,-72.967
1639.400,-73.797
1640.800,-74.824
1642.200,-74.812
1643.600,-74.801
1645.000,-74.007
1646.400,-72.774
1647.800,-71.815
1649.200,-70.821
1650.600,-70.013
1652.000,-69.953
1653.400,-70.163
1654.800,-70.382
1656.200,-68.897
1657.600,-67.792
1659.000,-67.357
1660.400,-66.030
1661.800,-65.014
1663.200,-64.851
1664.600,-64.693
1666.000,-65.312
1667.400,-66.745
1668.800,-68.896
1670.200,-70.391
1671.600,-72.688
1673.000,-72.744
1674.400,-72.568
1675.800,-72.399
1677.200,-73.592
1678.600,-75.244
1680.000,-71.344
1681.400,-72.414
1682.800,-73.836
1684.200,-75.034
1685.600,-76.694
1687.000,-73.633
1688.400,-75.921
1689.800,-81.055
1691.200,-210.000
1692.600,-210.000
1694.000,-72.574
1695.400,-74.774
1696.800,-79.457
1698.200,-76.226
1699.600,-74.393
1701.000,-210.000
1702.400,-73.484
1703.800,-70.474
1705.200,-69.061
1706.600,-67.997
1708.000,-67.218
1709.400,-64.558
1710.800,-62.920
1712.200,-63.473
1713.600,-64.105
1715.000,-64.642
1716.400,-65.145
1717.800,-65.714
1719.200,-66.817
1720.600,-68.298
1722.000,-71.466
1723.400,-72.582
1724.800,-74.087
1726.200,-73.196
1727.600,-72.457
1729.000,-72.055
1730.400,-210.000
1731.800,-210.000
1733.200,-210.000
1734.600,-210.000
1736.000,-65.805
1737.400,-69.954
1738.800,-210.000
1740.200,-210.000
1741.600,-210.000
1743.000,-73.815
1744.400,-210.000
1745.800,-210.000
1747.200,-69.728
1748.600,-65.174
1750.000,-210.000
